VAMAS Surface Chemical Analysis Standard Data Transfer Format 1988 May 4




1
Experiment Type: XPS
NORM
REGULAR
4
0
0
0
0
0
4


2021
5
4
15
31
53
0
0
XPS

1486.7
400.0
1E37
1E37
1E37
1E37
FAT
50.00
5.0
4.500
1E37
1200
1200
1E37
1E37


-1
kinetic energy
eV
1506.7
-0.1
1
count rate
c/s
pulse counting
0.200
5
70E-9
1E37
1E37
1E37
0
8201
2141
84683
52426
52451
52853
52613
52579
52289
51982
52388
52263
52651
52445
52219
52394
52334
52587
52496
52360
52352
52339
52369
51948
52240
52417
52587
52300
52391
52168
52508
52145
52217
52357
52383
52390
52738
52503
52582
52216
52594
52577
52784
52446
52167
52548
52478
52688
52560
52215
52173
52139
52641
52677
52262
52297
52163
52068
52438
52508
52382
52528
52454
52205
52570
52326
52062
52343
51986
52134
52362
52343
52464
52321
52233
52186
52215
52258
52123
52352
52538
52467
52448
52343
52361
52471
52520
52386
51951
52292
52003
52307
52364
51995
52288
52269
52333
52264
52232
52204
52308
52324
52226
52077
52439
52175
52547
52388
52076
52009
52113
52349
52085
52274
52243
51935
52263
52380
52049
52253
52078
52147
52015
52146
52077
52110
52190
52339
52094
51922
52023
52159
51591
52175
52068
52152
52409
52081
52182
52304
51660
52245
52024
51847
52188
51918
52228
52184
52085
52457
52753
52554
52195
52277
52160
52134
51983
52005
51997
51967
52246
52296
51945
52191
52154
52501
52229
52115
51898
52223
52282
52495
52150
52234
52243
51941
52259
52362
52210
52071
51998
51836
51966
52154
51872
52421
52245
52128
52227
52168
51926
52032
52059
52034
52015
52086
52206
52221
52142
52217
52174
52457
52113
52616
51996
51847
52145
51970
52127
51856
52134
51818
52027
52269
51968
52003
52216
52314
52046
51957
51881
51851
51955
52166
52134
51858
51986
51995
52125
52117
52223
52132
51986
51783
51820
52136
52171
52293
51894
52120
52135
52348
51906
51936
52036
52031
52170
52139
51786
51768
51967
52290
51913
51867
51980
51719
52144
52246
51680
51739
51965
51834
51800
51805
51828
51752
51771
51613
51636
51985
51636
51585
51710
51809
51717
51762
51542
51648
52140
51779
52078
51868
51969
52094
51388
51880
51789
51787
51908
51991
51786
51830
51608
51704
52153
51804
51852
51854
51987
51799
51798
51706
51784
51662
51560
51788
51982
51827
52190
51678
52011
51970
51804
51903
51718
51371
51367
51927
51886
51953
52118
51803
51654
51683
51477
51639
51610
51764
51799
51666
51913
52005
52142
51851
52210
51562
51509
51769
51798
51714
51726
51868
51898
51928
51926
51941
51876
51672
51851
51968
51941
51879
51900
51784
51738
52017
51688
51898
52197
51763
51680
51440
51599
52145
51608
51553
52030
52158
52057
51920
51848
51550
51589
52021
51842
51882
51597
51707
51954
51792
51443
51873
51713
51651
51759
51240
51480
51784
51840
51507
51476
51484
51511
51685
51589
51550
51557
51781
51561
51501
51791
51450
51438
51792
51908
51407
51389
51586
51567
51572
51580
51599
51574
51575
51855
51874
51262
51615
51620
51786
51644
51287
51341
51662
51637
51139
51078
51875
51183
51291
51786
51732
51428
51727
51336
51308
51875
51721
51802
51595
51349
51515
51704
51461
51908
51785
51511
51516
51857
51654
51580
51494
51249
51581
51656
51461
51459
51468
51601
51588
51664
51831
51512
51863
51606
51579
51025
51091
51048
51658
51475
51436
51509
51756
51296
51094
51300
51732
51227
51264
50970
51202
51268
51534
51615
51640
51438
51514
51189
51381
51178
51303
51005
51354
51307
51614
50984
50909
51376
51142
51397
51319
51448
51310
50963
51287
51601
51104
51453
51493
51293
51080
51200
51181
51262
50979
51283
51262
51617
51300
51371
51225
51322
51318
51268
51155
51345
51071
51120
51383
51195
51273
51374
51291
51311
51288
51658
50914
51242
51274
51373
51255
51397
51240
51251
51590
51415
51106
51494
51195
51082
51244
51433
51363
51075
51277
51330
50969
51060
51033
51354
51087
51283
51021
51161
51286
51321
51395
51158
51419
51239
51118
50552
51121
51034
51162
51227
51102
51140
51298
51435
51059
50966
51308
51195
50933
51156
51208
51215
51048
51073
51094
51208
51333
51213
51111
51405
51042
51151
51065
51085
50965
51074
51201
51358
51214
51246
50913
51073
51048
51260
51112
51359
51195
51072
51312
50974
51103
50854
51084
50850
50963
51256
51226
51185
50959
51068
50864
50818
51034
51046
51291
51096
51089
51055
51300
51071
50914
51060
51091
51017
51148
51126
51468
50802
50973
51186
50993
51295
50869
51020
51027
51005
50919
51317
50896
50869
51272
50947
50759
51241
51136
51133
51015
51199
51026
50985
51002
51172
51155
50875
51059
51274
51214
51069
50978
51082
51080
51110
51053
51127
50952
51257
50913
50962
51286
51503
51005
51220
51333
51189
50903
51264
51439
51072
51043
50777
50897
51234
51311
51518
51180
51124
51322
50797
51115
51294
50851
51058
51075
51161
50994
51158
51314
51549
51364
51337
51159
51038
51366
51232
51214
51115
51238
50977
50972
51354
51205
51286
51408
51235
51282
51306
51187
51085
51560
51180
51181
51294
51507
51324
51298
51560
51250
51271
51222
51368
51029
51225
51452
51165
51277
51407
51326
51236
51255
51175
51261
51285
51526
51268
51413
51363
51209
51123
51444
51223
51483
51495
51285
51065
51038
50853
50893
51240
51566
51471
51506
51397
51549
51081
51189
51088
51369
51265
51357
51415
51158
51073
51029
51104
51066
50778
50922
51294
50820
50767
51280
51050
51034
51050
50822
50990
51186
51099
50584
50973
50918
51096
50741
50664
50890
51172
50721
50695
51097
50723
50683
50835
50630
51017
50997
50999
50752
50837
51031
50997
50808
50677
50970
50481
50685
50892
50716
50632
50642
50827
50872
50425
50795
50962
50944
50575
50720
50918
50429
50839
51004
50680
50565
50476
50388
50368
50605
50457
50788
50581
50849
50594
50804
50943
50667
50444
50411
50673
50766
50619
50726
50489
50541
50651
50225
50683
50882
50420
50181
50628
50387
50444
50583
50598
50514
50819
50370
50562
50116
50479
50611
50552
50651
50657
50717
50212
50368
50300
50506
50720
50226
50509
50286
50665
50366
50549
50472
50306
50449
50436
50138
50471
50565
50507
50220
50280
50240
50343
50205
50307
50223
50353
50303
50100
49982
50195
50274
50346
50201
50108
50267
49906
49864
50148
50063
50204
50073
50133
50170
50268
50500
50194
49973
50317
50113
50439
50147
49918
49953
49852
49972
50334
50163
50215
49916
50151
50215
50027
49721
50228
50438
50139
49933
49981
49986
50064
50063
49858
49637
49753
49791
49736
50209
50057
49954
50252
50243
49854
50197
50224
49980
50165
49752
49908
49683
49728
49575
50173
50024
49790
49970
49901
49799
49807
49840
49833
49755
49780
49433
50137
49875
49706
49772
49538
49627
50118
49705
49639
49631
50213
49787
49751
49697
49948
49943
49644
49685
49766
49791
49800
50205
49892
49615
49867
49920
50051
49919
49867
49935
49960
50195
50106
49852
50061
50123
50069
49785
49826
50107
50096
49832
49700
50005
49718
49892
49759
49771
49757
49648
49570
49812
50074
49600
49482
49726
49994
49815
49602
49773
49779
49995
49859
49830
49757
49935
49861
49897
49421
49884
49779
49600
49783
49700
49793
49970
50030
49771
49682
49373
50023
49849
49969
49801
49752
49707
49802
49734
49653
49967
49717
49838
49658
49674
49649
49649
49580
49668
49749
49867
49835
49993
49883
50053
49710
49711
49840
49963
49793
49742
49676
49826
49607
49874
49382
49834
49838
49468
49554
49776
49790
49672
49897
49692
49649
49922
49653
49534
49179
49613
49854
49818
49690
49584
49665
49517
49132
49573
49841
50167
49775
49515
49612
49547
49856
49886
49549
49795
49446
49174
49928
49365
49463
49558
49670
49871
49305
49776
49651
49692
49636
49479
49810
49897
49760
49710
49600
49591
49624
49768
49375
49532
49555
49416
49838
49911
49829
49819
49855
49911
49959
49281
49446
49563
49622
49846
49823
49872
49679
49653
49865
49732
49947
49770
49783
49761
49738
49915
49927
49833
49943
49520
49702
49593
49927
50091
49958
49420
49845
49587
49725
49683
49765
49705
49602
49501
49706
49414
49603
49648
49375
49662
49543
49720
49809
49590
49752
49927
49885
50064
49673
49622
49609
49837
49482
49443
49698
49953
49920
49614
49737
49729
49647
49749
49577
49559
49523
49556
49414
49574
49854
49710
49952
50002
49623
49607
49578
49969
49865
49600
49475
49847
49894
49678
49765
49685
49719
49796
49625
49733
49692
49976
49585
49796
49856
49768
49772
49520
49460
49312
49820
50095
49639
49818
49804
49454
49745
49641
49508
49887
49617
49465
49561
49538
49656
49514
49476
49305
49560
49525
49629
49695
49564
49398
49721
49449
49608
49519
49758
49495
49841
49507
49906
49686
49518
49519
49671
49416
49690
49201
49686
49751
49650
49485
49590
49548
49582
49635
49384
49813
50115
49623
49407
49807
49560
49602
49634
49677
49947
49638
49563
49575
49530
49782
49712
49242
49726
49683
49641
49392
49315
49756
49911
49566
49220
49825
49745
49648
50400
50068
49518
49857
49777
49815
49732
49884
49622
50210
49966
49818
49701
49719
49575
49501
49714
49818
49365
49820
49591
49429
49316
49691
49597
49628
49710
49489
49556
49680
50118
49785
49751
49396
50128
49822
49668
49955
49692
49742
49499
49676
49497
49574
49813
49752
49729
49728
49958
49633
50001
49860
49872
49697
49887
49806
49666
49397
49602
49979
49522
49635
49851
49688
49607
49876
49855
49676
49809
49976
50104
50026
49647
49887
50106
49701
49553
49998
49910
49679
49872
49812
49830
49888
49975
50025
49756
49588
49649
49733
49771
49847
50169
50049
49726
50390
50189
49992
49698
49663
49708
49878
50210
50122
49915
49767
49727
49801
49885
49862
49939
49914
50363
49987
49932
50013
49686
50089
50019
50137
50135
49986
50056
49810
49993
50020
49790
50246
49752
49925
49900
50016
49916
49959
49897
49748
49930
50113
49722
50183
50181
49973
50296
50027
49935
49851
50137
50348
49621
49882
50056
50058
49909
49633
49806
50303
50105
50048
49950
50050
50068
50078
49810
49865
50330
50422
49871
50397
50372
50413
50381
49936
49734
49859
50099
49849
49961
49825
49821
50068
49959
50118
50114
50054
50372
50118
49926
49953
49948
49911
50104
50209
50101
50090
49787
50010
50281
50203
50096
49551
49579
49644
49579
49531
49693
49816
49335
49916
50246
50060
49902
49912
50023
50159
50248
49763
49916
49844
49806
50042
49887
50042
50089
50261
49995
49899
50217
49989
50140
49976
50192
50428
50168
50340
50308
50073
49960
49877
50254
49897
50186
50159
49954
50045
49862
49906
49929
50221
49899
49990
49973
49783
49698
50002
49714
49893
49849
49745
49654
49814
49848
49819
49786
49874
49906
49736
49655
49690
49861
49737
49659
49690
49375
49628
49869
49499
49716
49797
49683
49923
49869
50014
49760
49534
49359
49409
49853
49707
49329
49845
49390
49841
49857
49570
49621
49548
49544
49412
49743
49557
49526
49633
49510
49270
49386
49629
49758
49156
49694
49734
49379
49461
49637
49484
49490
49492
49095
49632
49412
49181
49498
49527
49529
49319
49405
49491
49388
49162
49358
49559
49264
49368
49839
49593
49467
49797
49442
49474
49679
49674
49119
49133
49486
49659
49538
49577
49315
49478
49407
49469
49049
49404
49466
49743
49132
49402
49567
49509
49224
49645
49374
49297
49201
49416
49606
49781
49291
49293
49466
49852
49430
49384
49215
49401
49395
49258
49081
49447
49509
49698
49419
49430
49411
49440
49468
49552
49499
49794
49293
49308
49456
49479
49419
49273
49551
49661
49789
49666
49607
49473
49342
49191
49429
49479
49450
49690
49672
49655
49558
49440
49697
49267
49656
49751
49210
49340
49193
49639
49235
49308
49383
49569
49648
49875
49504
49751
49418
49175
49324
49223
49230
49445
49469
49318
49488
49436
49419
49413
49835
49679
49373
49481
49290
49261
49301
49124
49506
49438
49655
49092
49375
49277
49498
49481
49475
49178
49289
49328
49293
49411
49706
49501
49322
49338
49339
49153
48873
49142
49433
49390
49842
49518
49560
49316
49229
48942
49031
49466
49092
48978
49260
49449
49175
49128
49504
49470
49328
49178
49421
49313
49508
49560
49321
49502
49328
49551
49230
49446
49267
49307
49410
49408
49470
49646
49634
49606
49444
49445
48984
49222
49304
49465
49511
49673
49401
49646
49676
49552
49689
49520
49627
49728
49538
49712
49678
49269
49639
49838
49339
49933
50166
49822
49522
49652
49937
49704
49702
49606
49956
50025
50114
49952
49772
49672
49682
49846
49774
49990
49926
49653
49659
49763
49760
49808
49844
49959
49694
49694
49893
50034
49904
49828
49736
49860
49818
49724
49567
49752
49832
50138
49994
49979
49819
49344
49426
49976
49888
49638
49740
49733
49389
49758
49629
49610
49904
49958
49826
49973
49516
49431
49567
49100
49574
49364
49530
49420
49350
49574
49706
49388
49595
49251
49528
49613
49719
49497
49116
49462
49435
49453
49419
49828
49605
49760
49453
49296
49430
49801
49501
49477
49253
49475
49592
49624
49375
49533
49401
49848
49995
49396
49840
49787
49873
49678
49405
49566
49466
49853
49972
49662
49495
49971
49712
49674
49684
49335
49745
49373
49724
49834
49988
49990
49799
49935
50048
49980
49709
50051
49862
50214
49827
49667
50247
49982
49710
49734
49939
49993
49967
49949
50160
49981
49769
50014
50060
50023
50081
49748
49714
49808
49792
49633
49594
49907
49868
50265
49520
49547
49568
49645
49415
49523
50051
49638
49428
49628
49628
49455
49394
49833
49507
49529
49512
49447
49568
49197
49417
49338
49521
49697
49393
49345
49412
49244
49485
49782
49364
49444
49494
49346
49233
49371
49386
49224
49321
49078
49112
49225
48893
48833
49312
49130
48964
48954
49287
49538
49005
48778
49436
49339
49319
49112
49024
48752
49108
49215
49198
49159
48938
49317
49047
49052
48897
48884
48914
49371
49190
49128
49165
49184
49353
49202
49131
49086
49046
49264
49192
49021
48954
49160
49094
49264
48929
49199
49003
48717
49005
49131
49121
49156
49205
49342
49051
49076
49115
49096
49198
49139
49030
49066
48945
48795
48969
49001
48765
49020
48916
49035
49137
49048
49283
49096
48954
49101
49001
48712
49223
48920
48903
49025
49216
49252
49162
48986
49135
49230
49272
48863
48861
48729
48893
49133
48920
48839
48823
49476
48994
49021
49357
48980
49321
49383
48952
49108
49069
49043
49194
49077
49050
49236
49069
49026
49040
49109
49057
48668
48955
48885
48952
48797
49043
49032
49173
49351
49038
48956
49131
49216
48958
48910
49055
49061
48813
48929
48844
49228
48861
48839
48756
48921
49369
49097
48804
49061
49167
49293
48918
49009
48999
48850
49382
49300
48989
49022
49071
49116
49191
48989
48973
48847
48650
48649
49046
48826
48813
48974
48951
48675
48749
48701
49050
49377
49190
49151
49177
49126
48919
49087
48993
48996
49267
49308
49226
49146
49332
49142
49339
49072
49128
49080
49327
49415
49196
49183
48999
49405
49237
49357
49390
49299
48915
49348
49272
49489
49238
49097
48977
49174
49176
49141
49083
49302
49053
49124
48898
49119
48921
48793
48856
49100
48992
48771
48772
49007
49046
49075
49177
49024
48930
48907
48891
48889
48809
48959
49274
48881
49223
49115
49242
49426
49292
49386
49089
49406
49294
49017
48731
48912
49149
48733
48531
48844
48751
48684
48652
48546
48654
48811
48446
48698
48895
48647
48736
48778
48874
48159
48523
48702
48848
48788
48600
48233
48244
48367
48530
48569
48661
48493
48607
48444
48260
48270
48638
48448
48204
48417
48506
48333
48300
48456
48299
48510
48265
48229
48555
48215
48260
48485
48624
48557
48267
48525
48803
48554
48665
48665
48550
48507
48574
48487
48702
48556
48532
48013
48375
48247
48094
48741
48757
48601
48738
48408
48577
48726
48508
48386
48591
48447
48596
48719
48911
49085
48923
48535
48677
48604
48828
48656
48648
48728
48979
49123
49045
49190
49000
48778
49144
48852
48386
48597
48639
49024
48955
48913
49258
48871
48851
48877
48605
48928
48669
48750
48572
48863
49118
48809
49152
49148
48782
48729
48759
48939
48902
48583
48922
49022
48730
48981
49136
49046
48908
48972
48696
49072
48883
48804
48763
48837
48878
48975
49070
48876
48413
48413
48900
48662
48377
48748
48715
48735
48264
48526
48789
48835
48385
48522
48617
48618
48357
48592
48400
48224
48375
48380
48602
48121
48393
48467
48458
48058
48243
48285
48489
48279
48391
48481
48114
47960
48074
48133
47843
48198
48719
48462
47883
48088
48233
48203
47866
48298
48611
48165
48009
48023
47866
47874
48275
47705
47726
47971
47974
47912
48152
48087
48235
48266
48051
47822
47626
47602
47878
47861
47996
48030
47873
47764
47877
48138
48325
47697
47860
47699
47485
47853
47572
47881
47402
47685
47406
47237
47560
47329
47770
47680
47294
47375
47360
47391
47130
47134
46884
46846
46539
47004
46902
46871
46690
46803
46598
46664
46255
45943
46046
46001
45981
45962
46114
45906
45856
45606
45499
45652
45339
45557
45129
45204
45205
45133
44958
45172
45339
45002
45200
45253
45089
44620
44741
45171
44604
44592
44881
44693
44617
44879
44989
44846
45068
44756
44894
44473
44677
44632
44581
44773
44610
44979
44767
44735
44444
44621
44876
44605
44600
44907
44912
44554
44657
44746
44499
44925
44805
44633
44821
44967
45036
44828
44901
45169
45618
45269
45641
46048
46113
46388
46681
47346
47794
48219
48716
49094
49770
50597
51226
51829
53102
53759
54736
55494
56704
57813
58795
60081
61472
62515
64118
65127
66069
67959
69295
70529
71973
73473
75001
76616
77910
78901
80428
82049
82721
83442
84043
84633
84683
84335
83633
82073
80178
79317
77187
74895
72659
69252
66564
63874
61377
58829
56667
54234
52483
50667
49150
47587
46577
45730
44934
44268
43426
43162
43222
42794
42513
42395
42397
42427
42409
42214
42226
41832
41829
42077
42037
41639
41567
41812
41741
41779
41957
41962
41906
41828
41606
41959
41741
41751
42087
41678
41739
41486
41425
41698
41393
41759
41675
41527
41603
41632
41504
41796
41521
41973
41610
41687
41957
41676
41972
41986
42474
42144
42152
42187
42595
42678
42676
42820
42837
42888
42736
43576
43430
43780
43977
44112
43968
44095
44412
44657
44680
44749
44848
44813
45033
45159
45041
44803
45217
45427
44952
44550
44479
44586
44507
44436
44049
44167
44034
43963
43833
43689
43653
43615
43411
43260
43319
42928
42763
42402
43058
42680
42317
42545
42017
42073
41748
41582
41625
41432
41375
41205
40975
40593
40740
40686
40329
40285
40538
40561
40540
40560
40220
39929
40243
40201
39924
39900
39791
39797
39609
39654
39795
39553
39464
39619
39427
39794
39770
39252
39237
39436
39591
39731
39746
39598
39763
39720
39690
39397
39590
39263
39669
39637
39470
39698
39441
39791
39662
40084
39944
39834
39773
39824
39274
39705
39838
39942
39655
39758
39710
39739
39562
40040
39742
39837
39954
39895
40128
40087
39899
39988
39823
40065
40003
39994
39901
40082
40037
40187
40100
39835
40018
39701
39339
39769
39897
39786
40128
39886
39797
39683
39791
39481
39932
39782
39665
39624
39639
39676
39535
39480
39205
39429
39459
38893
39162
39190
39063
39161
39110
38811
38636
38808
38912
38864
38611
38672
38595
38871
38666
38541
38403
38322
38472
38499
38349
38251
38442
38268
38441
38276
38556
38557
38221
38104
38029
38328
38285
38091
38034
37861
37812
37937
37923
38234
37895
37668
37861
38085
37682
37981
37781
37655
37682
37741
37681
37924
37705
37707
37884
37923
37625
37318
37708
37710
37433
37833
37697
37902
37583
37817
37605
37640
37525
38027
37942
37850
37838
37829
37992
37571
37703
37674
37681
38004
37771
37802
37866
37628
37822
38223
37787
37942
37880
37780
37851
37619
38104
37877
37875
37947
37907
37885
37775
37808
38195
37949
38151
38263
38229
38109
37956
37934
38228
38243
38106
37855
38195
38369
38133
38203
38202
38353
38159
38230
38049
37953
37971
37822
38004
37828
37935
38092
38018
38098
38126
37906
37837
37635
37719
38012
37828
37592
38007
37799
37705
37937
37591
37535
37381
37527
37348
37495
37527
37130
37679
37475
37611
37371
37299
37580
37445
37266
37446
37445
37279
37148
37369
37166
37471
37310
37400
37509
37190
37323
37482
37262
37194
36925
36804
37176
36906
36735
36896
36965
37065
36767
37057
37153
37275
37216
36948
37089
36801
36787
37146
37125
37025
37155
36727
37081
36860
36897
36988
36986
37022
36984
36825
36820
36883
36910
37049
36995
37097
36985
37115
36950
37177
36887
36786
36841
36783
36876
36763
36619
36869
36976
36809
36524
37027
36735
36805
36932
36837
36801
36899
36530
36807
36831
36558
36634
36709
36579
36627
36567
36662
36549
36816
36643
36555
36851
36436
36630
36688
36517
36677
36775
36710
36502
36496
36473
36747
36750
36443
36613
36745
36520
36608
36388
36651
36338
36698
36843
36487
36434
36404
36483
36499
36457
36390
36491
36563
36645
36580
36308
36467
36624
36343
36268
36438
36485
36307
36379
36420
36217
36470
36655
36519
36364
36511
36421
36520
36387
36074
36333
36353
36460
36541
36707
36501
36739
36574
36441
36797
36425
36572
36697
36344
36324
36210
36433
36314
36596
36401
36418
36428
36265
36086
36319
36448
36301
36405
36307
36270
36049
36312
36440
36768
36915
36618
36316
36134
36200
36235
36424
36441
36359
36388
36594
36249
36352
36101
35859
36253
36503
36547
36095
36110
36252
36550
36131
36612
36262
36330
36060
36313
36523
36419
36202
36341
36308
36175
36359
36414
36545
36383
36230
36379
36399
36417
36620
36280
36476
36685
36441
36097
36375
36579
36385
36366
36329
36468
36208
36349
36295
36297
36540
36294
36274
36730
36431
36348
36434
36518
36691
36724
36436
36366
36087
36554
36792
36446
36246
36582
36359
36314
36461
36331
36315
36542
36574
36642
36545
36416
36391
36578
36537
36650
36472
36316
36428
36711
36608
36595
36372
36446
36391
36520
36453
36276
36622
36624
36575
36932
36936
36503
36475
36532
36532
36605
36681
36614
36541
36731
36745
36670
36482
36476
36834
36517
36765
36510
36727
36623
36401
36538
36860
36775
36816
36719
36598
36562
36790
36890
36885
36785
36596
36657
36726
36751
36670
36505
36402
36349
36314
36403
36434
36514
36377
36657
36739
36247
36428
36581
36620
36514
36686
36512
35961
36537
36509
36486
36613
36466
36163
36485
36364
36353
36257
36656
36318
36171
36303
36406
36537
36334
36588
36148
36258
36520
36404
36031
36263
36384
36665
36432
36326
36674
36387
36212
36541
36431
36597
36066
36245
36509
36430
36362
36363
36586
36265
36378
36333
36437
36567
36508
36416
36707
36374
36344
36380
36407
36705
36506
36653
36638
36255
36508
36463
36209
36317
36503
36574
36426
36540
36570
36408
36722
36535
36426
36276
36376
36487
36405
36330
36462
36654
36338
36059
36753
36729
36567
36498
36713
36439
36284
36470
36749
36523
36710
36474
36467
36398
36619
36470
36364
36430
36590
36663
36659
36457
36637
36367
36461
36576
36517
36433
36375
36487
36495
36380
36610
36678
36613
36857
36846
36814
36452
36345
36565
36497
36658
36813
36764
36675
36473
36432
36490
36574
36297
36336
36854
36693
36450
36439
36545
36628
36409
36766
36474
36590
36386
36425
36434
36679
36565
36261
36251
36656
36386
36367
36561
36520
36693
36187
36688
36849
36669
36688
36366
36371
36530
36655
36459
36643
36760
36692
36482
36726
36788
36856
36481
36407
36365
36461
36858
36823
36393
36564
36792
36684
36562
36431
36493
36480
36657
36560
36599
36695
36563
36427
36262
36365
36375
36390
36682
36650
36485
36363
36137
36355
36454
36246
36538
36605
36262
36330
36216
36526
36246
36417
36474
36434
36248
36364
36508
36249
36400
36518
36244
36144
36330
36162
36484
36453
36460
36390
36176
36075
36559
36618
36606
36507
36512
36413
36549
36446
36556
36409
36446
36824
36741
36986
36462
36812
36830
37046
36712
37077
37104
37116
37029
37024
37051
37048
37400
37703
37422
37470
37482
37564
37516
37432
37903
37922
37941
37854
37723
38016
37785
37864
37995
38036
38205
38252
38424
38372
38557
38571
38559
38631
38744
38902
38888
38892
39179
38876
38894
38854
39112
38827
38936
39163
39232
38965
38835
38978
39275
39273
39172
38991
38667
38473
38645
38738
38923
38788
38300
38425
38228
38341
38480
38318
37966
37903
37999
37669
37698
37797
37772
37618
37004
37219
37042
37270
37508
37188
37114
36955
36926
37143
36901
36801
36494
36607
36731
36472
36289
36576
36292
36216
36390
36198
35891
35876
36174
36056
35797
36181
35953
36370
35947
35703
35714
35800
35675
35823
36081
36026
36032
36119
35712
35871
35827
36019
35942
35966
35863
36057
35739
35948
35757
35803
35742
35857
36044
35885
36080
36334
36165
35940
36277
36186
36019
36404
36323
36287
36156
36237
36395
36595
36554
36776
36766
36981
36963
37133
37318
37222
37083
37156
37349
37577
37978
37889
37853
38056
38356
38378
38154
38041
38195
38613
38661
38896
38494
38347
38665
38786
38624
38493
38449
38545
38734
38420
38660
38328
38184
38548
38403
38047
38118
38071
37900
38110
37869
37972
37943
37620
37505
37554
37387
37343
37239
37259
37051
36999
36988
36559
36566
36195
36037
35938
36160
36083
35647
35618
35602
35341
34979
34954
35024
34900
34680
34902
34430
34301
34252
34300
34056
34068
33813
34127
33609
33697
33626
33693
33794
33573
33542
33668
33660
33559
33412
33509
33350
33267
33403
33119
33079
33089
33360
33021
33075
32953
32950
33118
33425
32779
32883
33193
32868
32864
32859
32961
33005
32950
32804
32827
33008
32967
32958
32962
32888
32860
32672
32844
32982
32891
32740
32866
32641
32934
32928
32976
32771
32871
32810
32765
32713
33155
32858
32733
32863
32971
32953
33095
33071
33162
33166
32934
33367
33357
33311
33656
33471
33886
33856
33932
33687
34097
34106
34060
34303
34433
34406
34501
34469
34758
34845
34970
34833
35150
35292
35591
35661
35824
36047
36201
36174
36426
36604
36781
36805
37335
37265
37088
37561
37689
37788
38175
38010
38289
38607
38483
38677
39010
38619
39050
38961
39630
39422
39193
39356
39362
39203
39135
39040
39279
39217
39071
38961
38705
38685
38494
38397
38252
38504
38227
38052
38124
37924
37607
37683
37504
37468
37439
37356
36990
36858
36688
36361
35986
35837
35896
35823
35353
34991
34633
34926
34471
34154
34009
33672
33702
33551
33127
32882
32758
32680
32377
32103
32113
31904
31852
31975
31737
31676
31575
31563
31543
31332
31021
31139
31154
31101
30928
30847
30922
30871
30816
30866
30700
30440
30484
30730
30494
30385
30801
30679
30464
30482
30312
30414
30516
30474
30544
30408
30651
30837
30304
30461
30458
30573
30358
30459
30331
30512
30481
30615
30424
30594
30414
30481
30789
30590
30568
30624
30424
30416
30320
30400
30460
30822
30244
30405
30439
30297
30368
30341
30379
30435
30099
30659
30228
30208
30294
30265
30396
30222
30314
30090
30104
30210
29969
29885
30121
30120
30167
29907
29859
30133
29897
29907
29876
29794
29983
30208
30085
29665
29666
29545
29529
29853
29811
29607
29498
29613
29723
29518
29621
29706
29554
29416
29529
29379
29761
29613
29632
29643
29419
29383
29423
29702
29458
29443
29390
29163
29398
29561
29410
29278
29613
29301
29264
29503
29436
29458
29378
29547
29520
29162
29592
29380
29365
29325
29482
29419
29317
29583
29401
29260
29557
29305
29638
29620
29568
29535
29474
29384
29438
29317
29516
29392
29530
29500
29378
29647
29393
29809
29380
29183
29180
29444
29660
29574
29562
29367
29447
29500
29452
29538
29415
29429
29669
29613
29472
29479
29325
29419
29586
29653
29537
29757
29501
29570
29453
29310
29490
29544
29375
29563
29568
29525
29313
29328
29175
29400
29459
29406
29539
29530
29354
29295
29562
29527
29668
29567
29501
29334
29731
29405
29605
29647
29477
29595
29511
29443
29362
29454
29445
29502
29537
29566
29607
29327
29217
29632
29542
29498
29453
29316
29823
29555
29236
29284
29514
29556
29485
29395
29356
29466
29232
29320
29392
29547
29876
29670
29603
29364
29423
29201
29514
29589
29416
29556
29313
29463
29536
29733
29298
29614
29414
29596
29691
29450
29407
29486
29444
29620
29600
29673
29564
29625
29464
29532
29342
29505
29783
29501
29581
29591
29594
29374
29492
29759
29663
29385
29672
29532
29628
29694
29729
29635
29492
29456
29873
29593
29905
29595
29664
29714
29559
29525
29512
29474
29468
29377
29679
29536
29367
29822
29652
29302
29376
29455
29520
29540
29656
29416
29371
29647
29977
29838
29698
29807
29654
29484
29440
29834
30093
29647
29621
29549
29672
29551
29557
29411
30003
29839
29759
29660
29389
29284
29493
29745
29760
29595
29587
29738
29760
29628
29841
29845
29743
29629
29754
29341
29842
29543
29765
29626
29557
29552
29977
29697
29893
29714
30076
29771
29568
29651
29760
29382
29419
29611
29590
29662
29533
29783
29867
29786
29580
29689
29843
29697
29706
29676
29692
29697
29661
29993
30136
29968
30212
30167
30004
29843
29877
30043
30132
29982
30068
30242
30257
30471
30157
29879
29847
30149
30125
29991
30347
29953
30043
30140
30037
30132
30618
29861
30157
30169
29931
29953
30110
29981
30073
30143
30176
30116
30177
30129
29913
29935
29917
29799
29946
30263
30094
30151
30274
30241
30136
30252
30184
30135
30212
30144
30135
30056
30286
30117
30140
29943
29883
29684
29602
30109
29916
29748
29938
29899
29740
29762
29654
29730
29708
29591
29714
29675
29700
29541
29568
29682
29864
29686
29662
29401
29637
29645
29722
29717
29422
29316
29654
29722
29490
29416
29486
29426
29674
29574
29529
29388
29579
29545
29719
29658
29609
29843
29926
29597
29763
29774
29643
29912
29649
29701
29965
29950
29895
29734
29926
29669
29612
29711
29759
29606
29882
29948
29858
29705
29551
29891
30023
29941
30039
30034
29947
30011
30080
29958
30171
29895
29915
30066
29996
30182
30334
29852
30160
30254
29977
29985
30148
30051
30406
30171
30332
30470
30363
30417
30296
30283
30244
30446
30291
30405
30384
30481
30295
30327
30283
30693
30688
30605
30394
30811
30549
30779
30872
30982
31089
31200
31064
30953
31170
31222
31120
31406
31329
31518
31494
31594
31621
31652
31517
31457
31641
31759
31980
32125
32326
32195
32550
32576
32369
32691
32808
32664
32792
32715
32871
32885
32939
33004
33127
32958
32945
33111
32928
32771
32715
32574
32841
32755
32491
32572
32190
32098
32105
31921
31696
31710
31887
31563
31232
31206
31414
31055
30634
30690
30565
30634
30363
30154
30219
29900
29936
30013
29757
29887
29460
29325
29345
29448
29357
29324
29500
29492
29314
29160
29297
28902
29064
29167
28923
29077
28941
28472
28518
28674
28489
28784
28871
28735
28777
28577
28597
28775
28735
28646
28262
28656
28854
28638
28657
28771
28424
28296
28569
28328
28415
28303
28529
28501
28407
28615
28567
28575
28566
28469
28396
28434
28344
28267
28688
28333
28434
28372
28812
28702
28665
28739
28723
28634
28771
28616
28697
28717
28687
29006
29111
28611
28671
28877
28963
29073
29031
28753
28810
29172
28864
28989
29237
29181
29136
29030
28933
29246
29435
29430
29352
29533
29603
29444
29244
29472
29436
29662
29934
29823
29993
30073
30071
30365
30084
30414
30359
30456
30492
30645
30774
31032
31116
31270
31448
31622
31647
31896
31926
32250
32267
32316
32605
32589
32531
32764
33206
33032
33143
33238
33737
33301
33649
33753
33745
33706
33651
33807
33441
33406
33204
33186
32914
32606
32360
32168
32326
31906
31750
31497
31053
30940
30992
30508
30219
30162
30031
29760
29773
29459
29287
29020
28955
28854
28647
28912
28364
28363
28015
28404
28109
27832
27655
27723
27639
27594
27883
27355
27345
27263
27096
27161
26877
26699
26817
26776
26728
26869
26765
26551
26546
26658
26458
26766
26856
26512
26319
26870
26927
26692
26705
26881
26767
26762
26803
26767
26976
26910
26759
26893
26905
26998
27253
27332
27465
27327
27348
27291
27235
27425
27394
27482
27454
27389
27290
27378
27540
27197
27554
27483
27372
27338
27388
27175
27092
27065
27014
27029
26880
26670
26543
26456
26491
26359
26360
26388
26037
26239
26035
26036
25772
25722
25617
25419
25670
25599
25740
25464
25520
25522
25387
25455
25345
25048
25241
25187
25181
25023
25042
25204
25127
25024
25039
24945
24839
25006
24985
25011
25147
24871
25078
24571
24718
24884
25070
24756
24972
24668
24688
24716
24577
24587
24775
24585
24584
24683
24502
24580
24558
24645
24492
24489
24347
24459
24540
24401
24601
24407
24482
24400
24484
24388
24358
24535
24475
24535
24551
24637
24510
24445
24374
24340
24432
24328
24433
24297
24499
24451
24382
24469
24505
24377
24395
24418
24409
24431
24444
24305
24347
24501
24600
24562
24299
24406
24393
24200
24113
24274
24260
24152
24170
24369
24488
24652
24533
24487
24266
24242
24071
24163
24331
24454
24418
24547
24401
24506
24417
24395
24422
24491
24335
24398
24531
24547
24696
24818
24673
24839
25021
24812
24787
24997
25163
24922
25084
24907
25164
25302
25021
25206
25087
25315
25256
25320
25767
25493
25548
25633
25880
25820
25716
25793
25986
26308
26329
26561
26612
26731
26733
26924
27115
27410
27527
27832
28070
28320
28380
28631
28701
28913
29354
29479
29541
30287
30155
30606
30678
31188
31654
31775
31698
32017
32222
32053
31731
31800
31355
30812
30718
29825
29308
28786
28206
27480
27304
27051
26697
25984
26000
25420
25052
25135
25010
24841
24768
24772
24429
24588
24745
24794
24718
24409
24614
24737
24368
24404
24436
24446
24659
24622
24222
24222
24500
24546
24437
24337
24610
24570
24198
24492
24478
24466
24467
24481
24294
24457
24601
24419
24355
24465
24677
24700
24455
24105
24473
24291
24143
24394
24531
24580
24688
24433
24492
24628
24362
24412
24623
24520
24461
24503
24402
24578
24766
24553
24514
24479
24311
24409
24645
24636
24523
24615
24408
24565
24575
24581
24716
24779
24753
24723
24709
24765
24919
24759
24613
24535
24636
24777
24894
24814
24578
24651
24434
24536
24339
24659
24447
24388
24324
24435
24266
24136
24386
24600
24204
24138
24188
24155
24348
24134
24198
23769
23798
24084
24062
23999
24049
23796
24121
24031
24000
23869
24067
23886
23867
23883
23841
23995
24284
24070
23812
23792
23911
23869
24175
24020
23677
24060
23955
24083
23887
23947
24009
24004
23986
23927
23941
24154
24008
23900
24099
24154
24046
23999
24210
24158
24031
24374
23981
24112
24143
24061
24086
24147
24300
24235
24449
24157
24543
24382
24258
24366
24558
24205
24640
24431
24598
24341
24431
24717
24759
24646
24826
24737
25021
25155
25100
25012
25086
25225
25360
25520
25484
25569
25526
25539
25673
25885
25938
25861
26064
25934
26234
26296
26477
26508
26781
26952
26642
26584
26924
27256
27258
27390
27494
27746
27789
27758
27899
27993
28040
28357
28010
28241
28454
28483
28397
28466
28624
28353
28419
28413
28411
28189
28326
28060
27842
27820
27793
27851
27475
27460
27528
27514
27214
27024
27010
26905
26567
26648
26286
26323
26087
26014
25831
25920
25745
25530
25317
25313
25327
25201
24934
24895
24639
24578
24511
24341
24570
24543
24210
24352
23991
24187
23996
23940
24054
23745
23587
23693
23887
23645
23681
23442
23646
23618
23524
23438
23611
23612
23872
23666
23302
23711
23388
23496
23608
23393
23614
23573
23609
23479
23689
23700
23725
23764
23937
24073
24082
24042
23900
24078
24175
24353
24388
24472
24505
24582
24581
24813
25016
25155
25154
25276
25597
25499
25626
25804
26140
26250
26476
26380
26797
26906
26847
26962
26907
27410
27781
28022
28246
28277
28145
28302
28426
28658
28926
28800
28718
28758
28940
28870
28879
28665
28701
28580
28682
28522
28754
28488
28127
28196
27962
27827
27514
27288
27015
27197
26732
26436
26167
25616
25523
25510
25226
25101
24630
24464
24311
24008
23638
23467
23338
23186
22891
22667
22455
22462
22358
22173
22077
21882
21673
21367
21205
20986
21048
20839
20985
20375
20463
20314
19989
20272
20199
19771
19852
19665
19739
19440
19583
19391
19451
19365
19229
19376
19138
19170
19118
19337
19234
18918
19025
18932
18939
18962
19018
18993
18946
18989
18882
18795
18828
18827
18870
18702
18966
18906
19097
19088
19006
19015
19037
19114
19251
19109
19333
19341
19269
19557
19858
19766
19607
19626
19720
19905
20245
20386
20664
20868
21018
21345
21782
22013
22456
22852
23167
23366
23667
24134
24130
24392
24678
25137
25054
25191
25576
25528
25446
25256
25463
25451
25330
25418
25439
25490
25350
25645
25583
25788
25971
26015
26383
26957
27241
27788
28254
28849
29258
29477
30339
30733
31205
31455
31461
31552
31526
31347
31233
30753
30354
30227
29223
28797
28493
27930
27480
26639
26110
25663
25164
24997
24723
24113
23743
23495
23211
23075
23027
23314
23031
23428
23597
23475
23431
23606
23259
23050
22515
22153
21703
21273
20770
20170
19935
19495
18679
18002
17655
17236
16578
16159
15976
15576
15130
14934
14757
14421
14298
14169
13936
13967
13937
13844
13807
13751
13569
13662
13593
13517
13559
13701
13690
13606
13747
13414
13614
13651
13437
13586
13528
13491
13359
13597
13498
13526
13491
13455
13391
13472
13547
13762
13529
13459
13725
13721
13786
13677
13622
13808
13782
13736
13950
13756
13640
13817
13798
13829
13584
13746
13608
13501
13598
13459
13538
13645
13545
13497
13480
13438
13431
13421
13315
13186
13175
13240
13335
13253
13044
13228
13099
13265
13166
13217
13270
13085
13130
13077
12799
12861
12876
12829
12732
12746
12647
12578
12544
12630
12461
12589
12610
12578
12544
12494
12588
12408
12461
12299
12410
12474
12289
12077
12236
12249
12261
12107
12151
12136
12089
12206
12161
12213
12046
12023
11993
12088
12177
12026
12170
12157
11950
12019
11985
12038
11977
12102
11928
12032
12135
12049
12024
11970
12246
12175
11988
11888
12022
11890
11886
11949
11997
12004
12042
12010
12044
12006
11849
11970
11793
12002
11988
12184
12121
11981
11990
11887
11814
11877
11940
11901
11881
11975
11976
11919
11933
11989
12051
12146
12024
11961
11920
11948
11829
11796
11878
11824
11950
11967
12035
11931
11732
12024
12070
12005
11747
11868
11815
11770
11928
11943
11797
11835
11834
11614
11748
11986
11974
11837
11714
11899
11928
12023
12024
11868
12003
11947
11895
11861
11901
11852
11950
11813
11739
11762
11874
11937
11812
11865
11864
11848
11953
11774
11855
11824
11954
11769
11915
11833
11796
11742
11946
11922
11839
11949
11824
11920
11790
11907
11875
11913
11749
11806
11999
11983
11832
11965
11885
11939
11956
11918
11874
11844
11832
11828
11993
11939
11945
11823
11890
11844
11788
11829
11833
11876
11871
11925
11984
11897
11842
11831
11705
11791
11937
11926
11877
11817
11847
12008
11878
11935
11961
11866
11968
11823
11939
11907
11647
11782
11792
11761
11954
11888
11774
11815
11827
11756
11763
11861
11757
11773
11936
11943
11983
12037
11793
11888
11821
11841
11997
12046
11859
11942
11938
11835
11873
11772
11752
11901
11911
12052
11826
11898
11607
11798
11879
11939
11884
11929
11818
11892
11997
11904
12029
12026
11952
11887
11693
11743
11862
11923
11706
11924
12047
12069
11850
11954
12129
12145
11954
12083
11914
11941
12024
11815
11976
12229
12113
11863
11979
11896
11999
12190
11969
11944
12174
12069
11864
11798
11922
11813
11875
12062
11893
11794
11930
11982
11860
11877
12026
11934
11873
11930
11935
12036
11933
11968
11851
11955
11962
12046
11862
11891
12052
11968
11911
11977
11954
11957
11989
12001
12053
11903
11953
12044
11841
11894
11861
11897
12093
11881
11902
11753
11910
12004
11951
11729
11868
11990
11964
11897
11888
11615
11797
11953
11874
11907
11859
12051
12135
11964
11730
11880
11996
11961
11853
11854
11924
11846
11856
12011
11912
12025
11997
11967
11716
12080
12074
11898
11903
11954
11999
11964
12094
12062
12044
11929
11950
11861
11929
12018
12013
11938
11964
11978
11840
11990
11966
11894
12081
12054
11909
11725
12121
12104
12242
12072
11919
11977
11985
11966
12032
12138
12011
12067
11965
11982
12076
12054
12011
12005
11969
11977
11894
12075
12153
12076
12067
11935
12105
12163
12094
12059
12151
11931
11911
12015
11805
11896
11939
11894
12013
11957
12029
11754
11923
11930
11913
12081
12020
11994
12024
12029
12012
11992
12036
11935
11896
11844
11963
11995
11977
11870
12069
12016
11958
12028
11988
12065
11791
11977
11960
11935
11808
11775
11879
11875
11842
11789
11826
11978
12018
11988
11920
11949
11877
11834
11760
11873
11880
11920
11976
12127
11963
11878
11984
11937
11963
11943
12137
11872
11911
11912
12031
11956
11948
11903
11868
11974
12034
11890
11899
11831
11922
11938
12012
12063
11857
11948
11951
11897
12117
11994
11917
12131
12084
11841
12121
12179
11971
11928
11976
11850
12024
11989
12149
12112
12100
12027
12125
12040
12098
12035
11951
11907
12047
11952
11961
12088
11943
11996
12028
12007
12273
12022
12095
11974
12146
12195
12096
11938
12084
12036
12118
12009
12026
12112
12153
12047
12138
12222
12139
12097
12219
12093
12092
12047
12282
12028
11944
12164
12155
12207
12158
12195
12130
12117
12207
12114
12091
12099
12105
12008
12089
12128
12077
12101
12130
11973
12050
12012
12026
11922
12075
12043
11871
12046
12070
12065
12083
12079
11957
11956
11956
12142
11914
12007
12241
12137
12043
11924
11955
11956
12008
11978
12030
11937
12024
11975
11938
12002
12069
12055
11962
11917
11958
11919
12213
11865
12105
11987
12125
12140
12336
12018
12034
12134
12103
12146
12186
12143
12111
12143
12199
12280
12212
12166
12292
12372
12298
12420
12443
12337
12492
12357
12572
12509
12246
12205
12285
12467
12571
12558
12418
12416
12343
12333
12400
12432
12333
12174
12188
12147
12257
12228
12183
12199
12233
12353
11996
11935
12184
12300
12197
12003
12027
11993
12192
12222
12250
12139
12141
12057
12043
12197
12086
12053
12145
12085
12100
12030
11885
11956
12190
12030
12101
12199
12353
12206
12088
12171
12124
12185
12085
12027
11972
11987
11941
12002
12105
12232
12148
12133
12141
12190
12202
12166
12158
12324
12203
12062
12185
12237
12123
12018
12134
12270
12107
12156
12289
12177
12254
12195
12118
12295
12321
12381
12213
12167
12088
12265
12268
12194
12196
12223
12214
12402
12234
12154
12223
12248
12128
12236
12148
12134
12195
12322
11997
12246
12436
12272
12147
11973
12098
12174
12159
12321
12216
12294
12126
12097
12233
12437
12092
12123
12193
12216
12055
12257
12149
12077
12170
12179
12227
12147
12155
12258
12349
12296
12135
12113
12396
12208
12257
12213
12072
12180
12277
12141
12278
12107
12140
12210
12130
12343
12544
12353
12285
12344
12320
12208
12222
12283
12296
12290
12340
12280
12090
12178
12335
12378
12423
12475
12344
12374
12540
12356
12355
12331
12229
12384
12304
12289
12450
12368
12291
12471
12326
12426
12669
12426
12458
12339
12543
12431
12434
12441
12560
12433
12318
12466
12488
12402
12380
12251
12353
12408
12606
12471
12314
12287
12500
12298
12371
12327
12233
12286
12338
12300
12143
12380
12376
12271
12367
12443
12316
12300
12417
12448
12332
12404
12340
12392
12553
12394
12269
12493
12653
12368
12314
12497
12275
12384
12491
12290
12234
12349
12380
12358
12448
12446
12303
12377
12382
12311
12437
12430
12374
12354
12515
12404
12459
12234
12217
12195
12256
12393
12384
12376
12274
12302
12514
12394
12340
12341
12390
12370
12314
12401
12486
12466
12297
12445
12442
12343
12330
12361
12440
12576
12545
12576
12667
12796
12617
12447
12502
12460
12394
12614
12400
12564
12807
12558
12603
12519
12561
12618
12602
12772
12586
12630
12852
12657
12727
12669
12731
12849
12754
12777
12892
12951
12947
13089
12839
12892
13136
12921
13126
13128
13188
13003
13103
13034
12974
12979
13135
13076
12936
13048
13076
12971
13103
13004
12885
12983
12935
12925
12785
12802
12832
12776
12640
12593
12740
12844
12764
12764
12718
12540
12605
12306
12406
12655
12649
12563
12597
12449
12470
12572
12600
12425
12476
12625
12417
12525
12369
12442
12478
12647
12490
12618
12399
12655
12474
12479
12540
12597
12591
12540
12562
12576
12623
12548
12548
12618
12609
12513
12437
12430
12556
12597
12809
12804
12736
12597
12605
12725
12533
12580
12656
12606
12653
12622
12604
12523
12830
12785
12636
12650
12730
12844
12888
12937
12911
12668
12674
12741
12857
12833
12898
12956
12826
12788
12780
12775
12730
12586
12834
12798
12713
12787
12771
12799
12904
12891
12939
12827
12768
12756
12876
12814
12980
12803
12897
12851
12822
12877
12951
12918
12778
12804
12696
12998
13043
12919
12954
13020
12979
13065
13026
13057
12949
12914
13033
13074
13008
12953
13093
13248
13150
13077
13139
13085
13196
13191
13327
13152
13139
13188
13330
13366
13356
13469
13457
13238
13367
13487
13434
13463
13423
13455
13664
13470
13597
13546
13736
13677
13456
13656
13822
13686
13500
13595
13695
13524
13417
13448
13264
13329
13541
13590
13375
13496
13461
13316
13342
13322
13353
13462
13359
13264
13306
13363
13304
13488
13377
13248
13266
13331
13219
13207
13283
13334
13232
13383
13261
13144
13083
13109
13090
12893
13037
13077
13101
13015
13093
13076
13169
13174
13237
13157
13094
13221
13250
13078
13046
13115
13085
13119
12977
13177
12993
12941
13128
12977
12803
12990
13023
12983
13105
13233
12886
12723
12767
12730
12967
12866
12880
12708
12973
12935
12960
12954
12940
12665
12795
12667
12842
12956
12799
12859
12804
12716
12934
12864
12806
12601
12508
12564
12761
12724
12627
12668
12607
12637
12886
12670
12758
12694
12737
12480
12617
12596
12720
12390
12434
12737
12435
12633
12613
12700
12848
12756
12598
12475
12594
12601
12551
12764
12601
12645
12608
12533
12643
12478
12590
12426
12515
12676
12564
12483
12478
12549
12517
12354
12305
12480
12262
12175
12272
12375
12473
12390
12281
12275
12224
12244
12077
12211
12304
12174
12240
12399
12366
12170
12198
12108
12229
12162
12270
12224
12222
12349
12310
12309
12154
12206
12229
12259
12412
12294
12266
12345
12474
12372
12225
12342
12302
12299
12401
12439
12495
12355
12327
12460
12527
12415
12651
12568
12448
12446
12484
12498
12456
12399
12586
12423
12675
12540
12548
12690
12737
12763
12661
12649
12773
12767
12584
12640
12794
12905
13052
12774
12644
12962
12884
12956
12972
12920
13016
12927
13020
13165
13154
13274
13414
13259
13229
13519
13316
13496
13521
13633
13536
13645
13599
13680
13963
14036
14231
14094
14260
14519
14552
14643
14748
15064
15091
15667
15865
16378
16817
17295
17698
17969
18961
19404
20323
21023
21608
22154
23260
23897
24303
24570
24852
24843
24858
24573
24068
23358
22509
21902
20716
20029
19228
18386
17704
17240
16903
16528
16509
16437
16560
16841
17232
17565
17956
18728
19408
19989
20833
21754
22589
23531
24468
25201
25702
25783
26250
26038
25412
24831
24105
23125
21636
20355
19093
17910
16529
15386
14535
13557
13122
12541
12151
11757
11590
11360
11145
10868
10859
10796
10708
10587
10620
10561
10391
10386
10357
10387
10273
10281
10343
10151
10393
10356
10320
10356
10332
10193
10119
10230
10211
10268
10200
10340
10288
10330
10275
10248
10371
10411
10508
10580
10526
10611
10404
10606
10676
10795
10777
10632
10858
10802
10612
10679
10598
10603
10521
10486
10433
10272
10329
10296
10135
10122
10006
10065
10197
10286
10124
10092
10096
10144
10153
10342
10369
10246
10263
10230
10384
10335
10425
10231
10232
10261
10354
10309
10174
10147
10129
10067
9861
9791
9727
9649
9732
9631
9602
9539
9632
9573
9645
9380
9448
9537
9399
9240
9364
9555
9199
9269
9327
9231
8948
9058
9149
9084
9002
9032
9144
8973
8970
8942
8849
8822
8787
8906
8936
8748
8814
8890
8900
8914
8831
8944
8894
9001
9006
9032
9007
8940
8761
8832
8935
9049
9043
9066
8991
9025
9147
9154
9235
9100
9122
9153
9175
9147
9102
9083
9370
9426
9314
9349
9290
9331
9242
9414
9450
9429
9391
9565
9502
9523
9621
9632
9775
9688
9679
9661
9743
9724
9796
9608
9534
9731
9700
9476
9623
9512
9434
9384
9365
9426
9388
9407
9224
9185
9145
9071
9083
8897
8899
8851
8841
8621
8604
8543
8628
8448
8410
8235
8263
8257
8322
8192
8315
8196
7949
8071
8134
8131
7927
7955
7834
7724
7894
7750
7703
7762
7696
7701
7731
7812
7843
7621
7580
7688
7720
7664
7577
7668
7613
7491
7624
7619
7663
7649
7616
7715
7744
7724
7750
7834
7792
7778
7787
7818
8003
7947
8023
8006
8018
8047
8084
8069
8292
8341
8369
8484
8396
8563
8501
8436
8649
8675
8761
8921
8911
8892
8987
9099
9183
9222
9169
9369
9517
9576
9508
9532
9495
9578
9737
9757
9805
9883
9983
10213
10283
10312
10658
10715
10861
11087
11353
11515
11868
12080
12412
12723
13169
13455
13693
14416
14823
15255
15639
15938
16366
16410
16787
17034
17006
17249
17354
17203
17265
17498
17379
17366
17179
17526
17246
17596
17529
17484
18010
18024
17985
18035
17971
17938
17954
17666
17132
17161
16625
16155
15544
14877
14256
13683
12944
12539
12013
11313
10694
10294
9783
9480
9095
8791
8410
8129
7919
7606
7356
7329
7214
6876
6672
6519
6315
6143
6063
6061
5807
5609
5490
5331
5274
5327
5138
5145
5078
5075
4997
4935
5002
5125
4999
5060
5060
5001
5027
5007
5007
4929
5091
5128
5161
5166
5167
5268
5282
5264
5336
5349
5512
5535
5553
5486
5541
5733
5712
5465
5511
5481
5542
5471
5617
5740
5729
5651
5662
5830
5802
5899
5941
6131
6116
6014
6006
6056
5968
6035
6009
6044
5985
5950
5965
5895
5860
5768
5760
5570
5586
5563
5597
5630
5627
5475
5583
5366
5419
5470
5388
5356
5468
5378
5483
5484
5427
5557
5489
5371
5343
5484
5437
5407
5461
5424
5477
5369
5422
5311
5219
5192
5215
5232
5168
5204
5133
5064
4953
4830
4963
4845
4725
4759
4653
4809
4703
4552
4495
4333
4249
4260
4177
4062
4061
4042
4133
4029
4033
3917
3840
3828
3890
3835
3823
3786
3792
3720
3683
3624
3660
3650
3704
3657
3604
3607
3639
3663
3662
3524
3525
3491
3566
3475
3613
3636
3586
3528
3512
3368
3455
3571
3514
3435
3468
3410
3441
3503
3420
3393
3354
3433
3484
3468
3395
3503
3499
3449
3407
3424
3456
3414
3434
3441
3535
3421
3404
3415
3447
3523
3513
3466
3493
3412
3444
3434
3414
3481
3505
3460
3368
3441
3532
3454
3353
3459
3480
3477
3545
3613
3437
3536
3530
3580
3543
3606
3572
3693
3606
3691
3610
3748
3740
3713
3757
3804
3950
3895
4003
3876
3970
4021
4025
3976
4043
4129
4271
4277
4263
4342
4300
4332
4364
4514
4453
4473
4548
4619
4627
4634
4647
4727
4692
4740
4651
4672
4649
4850
4883
4943
4895
4941
4819
4933
5050
4940
5007
5059
5045
4843
4938
5034
4977
4873
4946
4901
4911
4977
4930
4792
4789
4820
4880
4844
4778
4620
4654
4693
4652
4678
4652
4488
4500
4524
4516
4538
4459
4561
4533
4546
4610
4719
4691
4589
4593
4667
4641
4647
4724
4707
4528
4496
4531
4546
4516
4454
4361
4309
4269
4176
4081
4057
3961
3830
3698
3535
3349
3336
3273
3056
2940
2843
2797
2817
2718
2706
2737
2714
2716
2691
2656
2595
2638
2523
2577
2567
2519
2555
2625
2573
2527
2584
2674
2619
2575
2522
2530
2580
2543
2578
2568
2543
2623
2498
2532
2561
2563
2572
2599
2528
2539
2543
2540
2581
2522
2507
2468
2506
2553
2455
2490
2448
2540
2472
2452
2462
2483
2454
2516
2497
2533
2489
2358
2396
2413
2490
2444
2460
2542
2448
2441
2430
2492
2531
2418
2488
2478
2466
2434
2519
2521
2420
2472
2447
2440
2419
2392
2346
2440
2429
2376
2232
2429
2356
2383
2318
2401
2335
2337
2375
2322
2237
2296
2349
2324
2319
2282
2343
2332
2229
2246
2254
2336
2262
2345
2272
2201
2267
2286
2249
2243
2231
2233
2252
2201
2274
2250
2255
2235
2282
2165
2265
2208
2286
2234
2220
2230
2159
2233
2279
2252
2252
2274
2276
2251
2312
2220
2181
2173
2270
2234
2201
2194
2180
2173
2244
2257
2244
2282
2284
2144
2182
2230
2201
2249
2260
2221
2250
2248
2211
2197
2190
2178
2206
2187
2202
2166
2222
2218
2259
2281
2265
2262
2236
2177
2141
2191
2242
2237
2274
2281
2164
2229
2244
2237


2021
5
4
15
31
53
0
0
XPS

1486.7
400.0
1E37
1E37
1E37
1E37
FAT
20.00
5.0
4.500
1E37
1200
1200
1E37
1E37


-1
kinetic energy
eV
1261.7
-0.050
1
count rate
c/s
pulse counting
0.500
10
70E-9
1E37
1E37
1E37
0
321
14001
32737
19689
19912
19863
19648
19804
19834
19585
19475
19597
19631
19759
19568
19880
19696
19516
19598
19387
19543
19566
19506
19649
19638
19631
19522
19634
19600
19653
19757
19672
19889
19731
19712
19591
19582
19965
19814
19612
19678
19559
19976
19862
19651
19856
19805
19685
19926
19936
19790
19829
19953
19931
19700
19986
20149
20030
20149
20222
20010
20152
20239
20310
20208
20306
20113
20459
20438
20472
20209
20631
20472
20626
20645
20493
20875
20810
20814
20920
21438
21374
21546
21571
21536
21655
21811
21837
22171
22299
22454
22553
22728
22932
22970
23237
23280
23364
23463
24091
23854
24226
24431
24604
24611
24763
24757
24940
25062
25322
25640
25423
25305
25837
26049
25846
25907
25885
25932
26053
26112
26275
26024
25831
25811
25962
26099
26175
25941
26196
26181
25919
26067
26179
25888
25837
25788
25856
25839
26163
26066
25916
25886
26297
26253
26380
26236
26336
26432
26810
26819
26727
27063
27477
27396
27646
28180
28540
28806
28938
29217
29710
29920
30106
30520
31078
31277
31517
31811
32068
32355
32376
32300
32312
32639
32737
32469
32628
32334
31834
31519
31725
31368
31324
30655
30415
30499
30050
29956
29614
29291
28836
29117
28679
28437
28220
27973
27880
27761
27558
27200
26652
26454
26223
26056
25584
25639
25092
24923
24691
24449
24215
23967
23953
23648
23469
23273
23345
23064
23217
23570
23037
23293
23702
23614
23642
23977
24239
24350
24360
24450
24924
25271
25071
25177
25321
25104
25302
24941
25061
24796
24309
23756
23337
22956
22659
21986
21637
21386
20885
20510
20038
19867
19493
19381
19152
18961
18703
18635
18563
18676
18440
18123
17927
17644
17454
17003
17030
16708
16419
16235
15929
15830
15677
15450
15235
15127
15046
14880
14773
14711
14660
14536
14520
14416
14366
14407
14319
14388
14372
14393
14472
14311
14251
14329
14338
14383
14178
14264
14323
14337
14218
14162
14183
14106
14036
14071
14191
14138
14211
14197
14089
14136
14262
14074
14271
14105
14181
14123
14287
14005
14001
14076
14218


2021
5
4
15
31
53
0
0
XPS

1486.7
400.0
1E37
1E37
1E37
1E37
FAT
20.00
5.0
4.500
1E37
1200
1200
1E37
1E37


-1
kinetic energy
eV
1097.7
-0.050
1
count rate
c/s
pulse counting
0.200
10
70E-9
1E37
1E37
1E37
0
941
12186
15923
14574
14507
14513
14572
14511
14391
14531
14707
14548
14527
14531
14579
14637
14530
14529
14308
14310
14524
14522
14350
14378
14426
14424
14436
14600
14557
14496
14535
14479
14571
14434
14444
14365
14636
14569
14486
14564
14607
14582
14500
14680
14851
14543
14621
14793
14571
14678
14583
14518
14688
14553
14539
14510
14535
14506
14377
14612
14670
14659
14318
14678
14604
14603
14645
14862
14736
14949
14785
14720
14769
14803
14688
14587
14584
14683
14666
14819
14572
14630
14714
14565
14877
14833
14829
14931
14895
14871
14692
14672
14867
14893
14823
14668
14782
14912
14884
15072
14911
14989
14898
14822
15033
14775
15042
14935
14962
15049
15049
15013
15085
15040
15054
15088
14957
15054
15138
15270
15151
15070
15121
15244
15429
15117
15264
15420
15034
15352
15434
15326
15410
15622
15387
15419
15533
15505
15514
15582
15486
15582
15635
15458
15358
15394
15543
15445
15443
15398
15646
15597
15541
15541
15530
15493
15519
15642
15613
15536
15690
15685
15629
15464
15714
15627
15684
15647
15714
15521
15656
15557
15486
15631
15636
15598
15440
15675
15581
15708
15574
15501
15521
15433
15313
15420
15530
15199
15351
15324
15349
15476
15328
15390
15270
15196
15192
15435
15297
15195
15257
15348
15291
15321
15174
15066
15322
15191
15240
15274
15189
15347
15294
15167
15121
15219
15090
15051
14880
15092
15117
15075
14990
14947
15009
14870
14822
14876
15000
14823
14867
14792
14859
14757
14912
14894
14692
14695
14723
14750
14687
14481
14665
14681
14544
14784
14624
14684
14633
14681
14601
14554
14628
14643
14478
14631
14514
14625
14548
14413
14382
14482
14439
14450
14402
14475
14409
14241
14551
14503
14554
14470
14572
14475
14429
14428
14397
14457
14497
14368
14610
14481
14485
14458
14316
14421
14312
14376
14212
14345
14375
14344
14404
14272
14362
14380
14259
14148
14453
14382
14141
14275
14425
14370
14303
14304
14360
14269
14472
14504
14369
14342
14177
14140
14262
14260
14247
14304
14221
14422
14359
14358
14333
14310
14430
14337
14591
14457
14406
14314
14378
14424
14379
14463
14295
14493
14680
14532
14522
14251
14244
14520
14614
14420
14456
14429
14526
14391
14474
14746
14531
14603
14497
14454
14598
14464
14483
14529
14537
14302
14683
14571
14607
14764
14806
14631
14465
14798
14486
14701
14677
14976
14508
14787
14972
14734
14716
14854
14895
15070
15007
14919
14936
15045
14935
15082
14879
14841
14972
15116
14986
15115
15119
14993
15157
15115
15414
15026
15253
15317
15422
15180
15396
15368
15389
15243
15471
15444
15403
15398
15348
15365
15486
15420
15358
15488
15616
15422
15296
15428
15258
15389
15379
15695
15321
15328
15470
15308
15540
15218
15218
15390
15393
15259
15367
15253
15443
15295
15278
15153
15085
15233
15315
15232
15427
15257
15131
15205
15138
15250
15042
14967
15176
15324
15261
15235
14972
14961
15096
15238
15107
15147
15111
15200
14998
15126
14859
15005
14996
14899
14975
14992
14824
14753
14707
14821
14595
14503
14749
14870
14521
14437
14505
14532
14611
14596
14569
14384
14364
14484
14472
14433
14245
14166
14309
14107
14169
14158
14168
14011
13973
13969
14132
14121
14035
13982
13987
13982
13809
13868
13893
13993
13982
13850
13813
13791
13746
13735
13806
13789
13599
13663
13773
13871
13758
13636
13492
13677
13700
13478
13646
13432
13605
13357
13556
13338
13553
13594
13528
13399
13521
13458
13467
13512
13510
13372
13504
13582
13382
13433
13451
13418
13344
13295
13262
13420
13472
13348
13194
13266
13571
13381
13518
13325
13233
13334
13264
13297
13375
13497
13280
13198
13345
13360
13192
13365
13310
13371
13104
13372
13244
13282
13251
13164
13201
13007
13298
13262
13244
13192
13206
13413
13342
13362
13150
13155
13185
13170
13254
13190
13275
13218
13097
13271
13262
13315
13175
13342
13342
13309
13290
13267
13378
13365
13028
13178
13188
13309
13154
13132
13204
13334
13165
13329
13387
13258
13319
13437
13221
13453
13484
13356
13325
13362
13424
13378
13149
13221
13322
13268
13314
13383
13296
13287
13373
13379
13263
13297
13357
13304
13457
13405
13358
13360
13338
13471
13428
13331
13273
13516
13278
13296
13502
13567
13210
13460
13418
13516
13488
13600
13628
13708
13589
13558
13713
13628
13573
13587
13754
13913
13773
13806
13540
13763
13712
13674
13826
13898
13883
14032
13968
13836
13942
13906
14004
13918
13859
13965
13975
14077
14244
13999
14130
14016
14111
14191
14101
14150
14084
14102
14387
14338
14491
14441
14609
14447
14403
14328
14332
14493
14787
14622
14569
14709
14655
14601
14602
14577
14670
14866
14953
14881
14986
14866
15008
15003
15088
15248
15197
15154
15199
15204
15192
15349
15391
15373
15327
15330
15351
15269
15417
15371
15325
15748
15683
15637
15648
15552
15894
15789
15519
15588
15745
15856
15716
15628
15799
15870
15695
15923
15877
15718
15733
15681
15793
15812
15844
15573
15711
15600
15787
15731
15687
15771
15699
15513
15538
15487
15555
15530
15482
15507
15483
15545
15662
15548
15350
15351
15264
15220
15241
15318
15311
15188
15170
15066
15078
15154
15381
15068
15109
15138
15011
14916
14919
15063
14955
14824
14927
14895
14868
14682
14624
14739
14588
14634
14610
14597
14501
14576
14228
14346
14235
14246
14301
14236
14273
14205
13957
13974
14026
14023
14019
13867
13790
13702
13760
13729
13808
13570
13355
13380
13318
13374
13333
13576
13473
13271
13331
13102
12986
13019
13140
12999
13096
12987
13144
12996
13026
12839
12848
12749
12876
12938
12745
12888
12843
12867
12841
12686
12586
12856
12671
12635
12527
12550
12596
12722
12573
12551
12462
12466
12613
12600
12636
12491
12652
12627
12413
12593
12543
12477
12565
12438
12515
12418
12618
12337
12224
12480
12405
12388
12466
12419
12416
12558
12353
12318
12434
12485
12388
12420
12186
12428
12414
12301
12441
12312
12559
12448
12400
12336
12325
12295
12359
12354
12384
12260
12463
12336
12306
12433
12364
12393


2021
5
4
15
31
53
0
0
XPS

1486.7
400.0
1E37
1E37
1E37
1E37
FAT
20.00
5.0
4.500
1E37
1200
1200
1E37
1E37


-1
kinetic energy
eV
1246.7
-0.050
1
count rate
c/s
pulse counting
0.200
10
70E-9
1E37
1E37
1E37
0
541
7813
12216
9995
10125
10105
9939
9991
10042
9799
10059
9971
9999
9847
9996
10096
10007
10007
9919
9949
9843
9943
9939
10192
9976
10027
10041
10149
10294
10129
10074
10046
10157
10240
10296
10207
10266
10230
10176
10134
10107
10130
10291
10067
10042
10193
10215
10293
10216
10252
10334
10438
10386
10221
10173
10245
10446
10523
10388
10368
10533
10470
10656
10532
10416
10592
10551
10514
10710
10537
10655
10605
10700
10715
10640
10743
10667
10753
10654
10724
10825
10778
10594
10737
10784
10756
10887
10817
10819
10871
10960
11025
11038
11205
11063
11020
11137
11019
11184
11140
11174
11268
11051
11168
11252
11329
11349
11441
11413
11248
11507
11490
11506
11572
11532
11549
11606
11700
11566
11595
11688
11671
11772
11737
11631
11762
11940
11706
11757
11869
11815
11749
11800
11916
11883
11738
11791
11779
11820
11766
11864
11962
11742
11717
11804
11737
11854
11903
11754
11620
11680
11743
11610
11733
11664
11697
11773
11523
11503
11683
11690
11563
11640
11409
11407
11421
11533
11364
11513
11381
11445
11217
11248
11227
11361
11198
11117
10986
11211
11175
11012
11009
11005
10942
10964
10847
10990
10878
10825
10873
10894
10825
10566
10605
10692
10632
10757
10570
10661
10638
10539
10521
10561
10762
10603
10372
10223
10513
10489
10314
10236
10266
10340
10236
10371
10261
10119
10097
10209
10208
10173
10206
10060
10129
10056
9955
10065
10012
10080
10090
9955
9841
9928
9956
9889
10067
9961
9940
10063
9723
9803
9900
10082
9897
9970
10095
9798
9766
9637
9980
9845
9939
9842
9776
9795
9699
9987
9801
9839
9817
9747
9736
9782
9841
9793
9610
9697
9706
9701
9739
9824
9870
9931
9795
9756
9697
9742
9786
9694
9805
9837
9698
9626
9693
9895
9753
9880
9873
9885
9766
9886
9996
9866
9957
9973
9820
9822
9938
9990
9940
10183
10005
10064
9969
9849
9872
10172
10058
10122
9918
10169
10098
9974
10072
10134
10048
10125
10260
10118
10242
10444
10261
10345
10295
10302
10395
10346
10540
10451
10388
10407
10552
10565
10654
10527
10564
10589
10636
10793
10723
11028
10866
10811
10924
10919
11068
10931
11020
11061
11074
11128
11122
11282
11172
11361
11318
11234
11324
11433
11401
11547
11643
11526
11643
11717
11729
11600
11627
11813
11804
11802
11806
11899
11805
11959
11986
12012
12173
12044
12003
11997
12177
12171
12166
12122
12201
12216
12136
12032
12017
11986
12041
12097
12075
11877
11911
11941
11941
11997
11999
11973
11772
11837
11900
11837
11744
11650
11612
11745
11621
11375
11579
11548
11383
11326
11283
11231
11366
11224
11144
11072
10936
11008
11067
10926
10866
10837
10714
10811
10785
10624
10537
10585
10414
10367
10387
10408
10232
10260
10206
10039
10031
9824
10080
10126
10077
9944
9813
9859
9642
9713
9689
9561
9554
9492
9412
9326
9354
9465
9517
9549
9342
9193
9109
9072
9022
8948
9124
9039
9045
8981
8998
8847
8728
8886
8776
8697
8580
8638
8754
8639
8549
8562
8631
8665
8686
8644
8528
8538
8501
8518
8448
8535
8319
8337
8279
8309
8257
8240
8522
8248
8204
8071
8155
8144
8257
8247
8267
8117
8006
8204
8215
8189
8185
8112
8019
7933
8082
7971
7990
8027
8057
7927
7959
7965
7925
7922
8018
7909
7996
7867
7927
7875
7824
7943
7931
7929
8009
8050
7977
7873
7908
8029
7813
end of experiment
